time,x,y,theta,velocity
0.0,0.0,0.0,0.0,1.0,0.0
0.1,0.10987737537798789,0.0045308451139730995,0.08000000098235426,1.2000000019993502,0.12000000019993502
0.2,0.2388921281898357,0.02022162172569844,0.1599999977108773,1.4000000037660012,0.26000000057653516
0.30000000000000004,0.3858364358210305,0.05014471588907178,0.2399999950400658,1.6000000056346768,0.42000000114000285
0.4,0.5491354665962043,0.09724073787815156,0.3199997822242349,1.800000001010719,0.6000000012410748
0.5,0.7268615082825238,0.16427970976345457,0.39999977566935285,2.000000002854985,0.8000000015265734
0.6000000000000001,0.9167519468796329,0.25382369649899356,0.47999966697496177,2.2000000032421676,1.0200000018507902
0.7000000000000001,1.1162309480540236,0.3681912630073349,0.5599996064645887,2.4000000045282786,1.260000002303618
0.8,1.3224346271191565,0.5094241782144091,0.6399996074366199,2.600000006528093,1.5200000029564273
0.9,1.532239535801681,0.6792565922299274,0.7199995861796293,2.8000000083813212,1.8000000037945596
1.0,1.7422941839781405,0.8790870746797583,0.7999995871576632,3.0000000103812154,2.100000004832681
1.1,1.9426057758533726,1.1023102412716788,0.8788835724916456,2.999999121428777,2.399999916975559
1.2000000000000002,2.140271729511457,1.3279324960294498,0.8238122903361765,3.000000029997447,2.6999999199753035
1.3,2.3485106023432216,1.5438589217891046,0.7832279790406239,3.000000029986262,2.9999999229739296
1.4000000000000001,2.5678974371814647,1.7484000678177996,0.7175582269709231,3.0000000293822717,3.299999925912157
1.5,2.7990431742063575,1.9395821144384662,0.6645455895129155,3.000000029793923,3.599999928891549
1.6,3.0381048477657218,2.120805537745269,0.6327353366472004,3.0000000299270235,3.8999999318842513
1.7000000000000002,3.283040038589361,2.294004358923346,0.5982430613448346,3.0000000299754803,4.1999999348818
1.8,3.53311985668729,2.4596997189288956,0.572078968672587,3.0000000299916163,4.499999937880961
1.9000000000000001,3.787427268267083,2.6188308435963545,0.5461881269650907,3.0000000299969805,4.799999940880659
2.0,4.045456487176709,2.7718581909292337,0.5244168260466233,3.0000000264792375,5.099999943528583
2.1,4.307177779208424,2.918474264744349,0.49686317025605026,3.0000000286307955,5.399999946391662
2.2,4.571934681379563,3.059549396647311,0.48229530346678395,3.0000000295433225,5.699999949345995
2.3000000000000003,4.840171385860702,3.1938597509501205,0.44614485603092746,3.0000000298474783,5.999999952330743
2.4000000000000004,5.111541383930207,3.3217555820573392,0.4347003092680597,3.000000029948757,6.299999955325619
2.5,5.385908557917265,3.4430504735955387,0.3978121875438978,3.0000000299825986,6.599999958323879
2.6,5.663838034244033,3.555970638587125,0.37402304080598064,3.0000000299930405,6.899999961323183
2.7,5.944326076997752,3.662378060132141,0.3511614620830697,3.0000000130312063,7.199999962626304
2.8000000000000003,6.227264110428899,3.7620851006517815,0.3264591142953587,3.0000000242909723,7.499999965055402
2.9000000000000004,6.512680536461825,3.854454055881267,0.29952314966685273,3.0000000280962396,7.799999967865026
3.0,6.80052102024436,3.9389645441743815,0.27163007485454377,3.0000000293646147,8.099999970801488
3.1,7.090428957587344,4.016096606932213,0.2484363260467475,3.0000000297775973,8.399999973779247
3.2,7.38204774177684,4.086484475008748,0.22524257723895125,3.00000003019058,8.699999976798305
3.3000000000000003,7.675220503525588,4.150090284947068,0.202048828431155,3.0000000306035624,8.99999997985866
3.4000000000000004,7.969947240978483,4.206035577355643,0.17312931943025447,2.9999998970159933,9.29999996956026
3.5,8.266227068373633,4.253054983265048,0.14164425605757192,2.999999941817536,9.599999963742013
3.6,8.563823018332421,4.290865774955348,0.11110974252906519,2.999999984921692,9.899999962234181
3.7,8.862373459115538,4.320234495768147,0.08500140454265373,3.0000000033649297,10.199999962570674
3.8000000000000003,9.161547985914021,4.342391250686381,0.06284794128156475,2.9999999972298683,10.49999996229366
3.9000000000000004,9.461128716934464,4.3581455489203345,0.042230910119812816,3.000000010101415,10.799999963303803
4.0,9.761015204659786,4.365893162365125,0.009427905643976144,3.0000000215937255,11.204332610375559
4.1000000000000005,10.061010744800203,4.365887725325389,-0.009464153127615019,3.0000000090081516,11.504332611276373
4.2,10.360790958606122,4.375044177574152,0.07053293600271285,3.000000021616067,11.204332610377794
4.3,10.6588807133377,4.408127607647662,0.1505319499164406,3.0000000197641,11.504332612354204
4.4,10.954846993636005,4.457102400383075,0.17744454247739969,3.000000026586924,11.804332615012896
4.5,11.251211618826728,4.503506296671676,0.13318740472316087,3.000000028861279,12.104332617899024
4.6000000000000005,11.549313993643942,4.536992629680912,0.09053803112780429,3.0000000246192546,12.404332620360949
4.7,11.848569110009711,4.5578012358566315,0.048307822599853,2.9999998819352713,12.704332608554475
4.800000000000001,12.148478763647693,4.560292901227686,-0.03169209796232833,2.9999999796025265,13.004332606514728
4.9,12.447628364245112,4.538809651385234,-0.11169055569177196,2.999999984168708,13.304332604931599
5.0,12.744104415479162,4.493488969849314,-0.19169002528709964,3.0000000056965384,13.604332605501252
5.1000000000000005,13.036010480129622,4.424620522466476,-0.2716900185864436,3.0000000216064433,13.904332607661896
5.2,13.321479542739059,4.332645355127532,-0.351685793110312,2.9999999533285697,14.204332602994754
5.300000000000001,13.59868566653378,4.218151789509686,-0.4316856356698826,3.000000001660859,14.50433260316084
5.4,13.873569712962965,4.0980389932989265,-0.392225297042014,3.000000012494991,14.80433260441034
5.5,14.15408229632749,3.99180660302312,-0.3318099953769166,3.000000023239029,15.104332606734243
5.6000000000000005,14.440261740501162,3.901925263715568,-0.27682521676433175,3.0000000271461342,15.404332609448856
5.7,14.730887777139968,3.827660799849638,-0.22353302165924444,3.0000000288902355,15.704332612337879
5.800000000000001,15.025770645516866,3.7729240801773805,-0.14353302551324884,3.000000029143793,16.65649891523866
5.9,15.324084645634322,3.7419277506486064,-0.06353401412654412,3.000000008432437,16.656498913167525
6.0,15.623125600230827,3.7181179544130805,-0.09537180054343142,3.000000022787463,16.656498914603027
6.1000000000000005,15.922585946855875,3.7015193073649924,-0.015371940352200658,3.0000000212022715,17.262295170456518
6.2,16.222538766965275,3.6962139710470088,-0.01999884350740819,3.000000027018861,17.262295171038176
6.300000000000001,16.52239879232508,3.702212263796762,0.06000079363481477,3.000000009385414,17.868091425286842
6.4,16.820820430031098,3.7321545402771785,0.14000079421008732,3.0000000231222455,17.868091426660524
6.5,17.11589481051227,3.7858492746488306,0.22000044133999785,3.0000000200480725,18.47388768236512
6.6000000000000005,17.405734471399146,3.8629530046374727,0.3000004385771809,3.0000000266406888,18.77388768502919
6.7,17.68848663126958,3.9629692790224222,0.37997698067616525,2.9999999108238673,19.07388767611158
6.800000000000001,17.96237880732574,4.085181230643301,0.4594094154182364,2.9999998931660525,19.373887665428185
6.9,18.23529778370082,4.2096209963636495,0.3961867295809089,2.9999999826564316,19.67388766369383
7.0,18.50969193042053,4.330848301418895,0.435840926421759,3.0000000135859826,19.973887665052427
7.1000000000000005,18.779784280805476,4.461400575355789,0.46465611294309206,3.000000023530773,20.273887667405504
7.2,19.042316504439803,4.606413836443695,0.5446561132372539,3.0000000278344348,20.573887670188945
7.300000000000001,19.292420382669672,4.771943485156336,0.624656114217439,3.000000029255167,20.873887673114464
7.4,19.52849610395289,4.956930696645017,0.7046561151976242,3.0000000306758996,21.173887676182055
7.5,19.749033589255504,5.160192184033425,0.7846561161778093,3.000000032096632,21.47388767939172
7.6000000000000005,19.95262215122902,5.380427767438341,0.8646561171579944,3.0000000335173644,21.5028689637721
7.7,20.13795951779563,5.616228690683987,0.9446561181381795,3.000000034938097,21.502868963914175
7.800000000000001,20.303860162245698,5.866086632534143,1.0246561191183647,3.0000000363588293,21.502868964056248
7.9,20.449262886563247,6.128403354800905,1.1046561200985499,3.0000000377795617,22.10866522021033
8.0,20.58970226824309,6.382040809839289,1.0246561191004473,2.800000035781817,22.694461476022564
8.1,20.738901800430515,6.606986691344081,0.944656118101107,2.600000033782836,22.674461475822667
8.200000000000001,20.89324480576567,6.803569833205194,0.8646561171013796,2.4000000317830636,23.2602577316347
8.3,21.049231487857746,6.972507598023604,0.7846561161054364,2.2000000297853894,23.24025773143493
8.4,21.2184005655282,7.128243388798003,0.7046561151208288,2.4000000316115226,23.86605398762956
8.5,21.415212550328896,7.282294476231578,0.6246561142242146,2.6000000315809952,23.886053987626507
8.6,21.64037960954822,7.431160003053634,0.544656114452819,2.80000002395331,23.906053986863736
8.700000000000001,21.89422520928164,7.571222808010768,0.4646561135103049,3.000000025852389,24.531850243065655
8.8,22.167506468292927,7.694792091828241,0.3846561125110274,3.000000028616798,24.531850243342095
8.9,22.44978869534831,7.7961269763877485,0.3046561115398353,3.000000029522483,24.531850243432665
9.0,22.73926624736007,7.874579264168131,0.2246561105432639,3.0000000298405203,25.137646499476478
9.1,23.030688122074093,7.945759515731332,0.25446609950303234,3.0000000299466194,25.743442755499096
9.200000000000001,23.322034582395073,8.017254317386916,0.22681258820736078,3.000000029982034,25.743442755502638
9.3,23.61134228086891,8.09633067414954,0.3068125892014681,3.0000000299938745,26.34923901151583
9.4,23.896514079409933,8.18946867704235,0.3245497992303721,3.000000029997693,26.349239011516215
9.5,24.177583374222657,8.294202031273478,0.38882333634188343,3.0000000299990615,26.955035267528363
9.600000000000001,24.4570370567115,8.403276684599799,0.35543365058299686,3.0000000299994487,26.9550352675284
9.700000000000001,24.735423252215803,8.514993058838813,0.4078194404779682,3.000000029999604,27.56083152354043
9.8,25.013180524591245,8.628299285034355,0.3668325653608001,3.000000029999708,27.56083152354044
9.9,25.28990308245855,8.744052424267586,0.4255320648352675,3.000000029999667,28.166627779552442
10.0,25.567808511202347,8.856838005218796,0.34553206384911306,3.000000029999213,28.1666277795524
10.100000000000001,25.844263909508403,8.944174087682455,0.26553228449841315,2.8000000359507045,28.752424036159557
10.200000000000001,26.10267065712616,9.022316646484793,0.3224877550395904,2.6000000339508973,28.732424035959575
10.3,26.10267065712616,9.022316646484793,0.3224877550395904,2.6000000339508973,28.732424035959575
10.4,26.10267065712616,9.022316646484793,0.3224877550395904,2.6000000339508973,28.732424035959575
10.5,26.10267065712616,9.022316646484793,0.3224877550395904,2.6000000339508973,28.732424035959575
