time,x,y,theta,velocity
0.0,0.0,0.0,0.0,1.0,0.0
0.1,0.10987737538006553,0.004530845042293663,0.07999999971703554,1.200000001963292,0.1200000001963292
0.2,0.2388921282392169,0.02022162128676596,0.15999999335657475,1.4000000038010147,0.2600000005764307
0.30000000000000004,0.3858364359593089,0.05014471504617117,0.2399999938081039,1.60000000579208,0.42000000115563874
0.4,0.5491354617585504,0.09724075466705936,0.3199999948041886,1.800000007792033,0.600000001934842
0.5,0.7268614895708527,0.16427976524959237,0.39999999574669864,2.000000009791607,0.8000000029140028
0.6000000000000001,0.9167519043285328,0.2538238040138525,0.4799999904142523,2.200000011773816,1.0200000040913844
0.7000000000000001,1.1162308789497073,0.368191419118135,0.5599997669559392,2.400000013709776,1.260000005462362
0.8,1.3292563670355555,0.4990288011649652,0.5418137316075494,2.600000015673191,1.520000007029681
0.9,1.5607955050134743,0.6379157133855752,0.5388298183812602,2.800000016444968,1.8000000086741779
1.0,1.8102308220183596,0.7858402866852826,0.5318197828509781,3.0000000184418574,2.1000000105183636
1.1,2.0693332117262955,0.9370539657213162,0.5247357725939467,3.0000000299982967,2.400000013518193
1.2000000000000002,2.329266937911124,1.0868349443133718,0.5207769064549352,3.000000006698579,2.700000014188051
1.3,2.590129398916191,1.234991055683741,0.5122586548092185,3.0000000299998804,3.000000017188039
1.4000000000000001,2.852060583172263,1.3812503683605004,0.506262459034423,3.000000019593304,3.3000000191473693
1.5,3.1148048946512628,1.526044108639697,0.5010850889349634,3.000000029643376,3.6000000221117068
1.6,3.378334508542221,1.669403442488425,0.49536040032244916,3.000000029996145,3.9000000251113214
1.7000000000000002,3.6427220009817725,1.8111742325011,0.48904913031486763,3.000000029996196,4.200000028110941
1.8,3.9079425561860814,1.9513806206477162,0.4835444694250882,3.000000017983957,4.500000029909337
1.9000000000000001,4.17395535125767,2.0900779058158876,0.4776863227785493,3.000000029968451,4.8000000329061825
2.0,4.440786818788872,2.227193543610019,0.4716713408569908,3.0000000214381575,5.100000035049998
2.1,4.70843514240457,2.3627077830824645,0.465701610793292,3.0000000291043065,5.400000037960429
2.2,4.976876217780268,2.496644837611857,0.45990323760624846,2.9999998936623147,5.70000002732666
2.3000000000000003,5.246306819860118,2.6285786380048495,0.4508060675484189,3.0000000299998586,6.000000030326646
2.4000000000000004,5.51639915033526,2.7591547750494323,0.4498342621731706,3.0000000243341853,6.300000032760065
2.5,5.787077185434895,2.888510550453284,0.4417818042041238,3.0000000299998537,6.600000035760051
2.6,6.058643622464021,3.015991601094656,0.436003723398187,2.9999999163202418,6.900000027392075
2.7,6.33087076516197,3.1420559466471274,0.43136046624671504,3.000000021669475,7.200000029559022
2.8000000000000003,6.603855819817365,3.266469544762688,0.423894189626367,3.0000000299956913,7.500000032558591
2.9000000000000004,6.877628487243727,3.3891411074733533,0.4186150159288417,2.9999997950019353,7.800000012058785
3.0,7.152123659918918,3.5101868427552807,0.41203324082852816,3.000000029982935,8.100000015057079
3.1,7.430473613769568,3.6219633689141575,0.3516820676212661,3.0000000181762214,8.400000016874701
3.2,7.7096144966380855,3.7119906070174484,0.2716820666212706,2.8675521216097377,8.686755229035676
3.3000000000000003,7.988755383852146,3.8020178338347335,0.3516819858516889,3.000000028413088,8.986755231876984
3.4000000000000004,8.266518355700027,3.915201087046993,0.4221964183360474,3.000000029985127,9.286755234875496
3.5,8.542040099572082,4.033862536384963,0.3911456278547964,3.000000028410176,9.586755237716513
3.6,8.819220358407756,4.14862771121363,0.3939652236802749,3.000000000508208,9.886755237767334
3.7,9.09712763746917,4.261613159277242,0.3783289226082308,3.0000000299959773,10.186755240766932
3.8000000000000003,9.38004537383769,4.361159973775851,0.2983289218891669,3.000000004409646,10.486755241207897
3.9000000000000004,9.662963110598406,4.460706787202996,0.3783289150002966,3.000000029978375,10.786755244205734
4.0,9.941748066862607,4.571517210717529,0.3783289150002966,3.000000029978375,11.086755247203572
4.1000000000000005,10.217191392547733,4.690286360005475,0.43587948633635754,2.999999088819903,11.386755156085561
4.2,10.483787312855931,4.82768578424925,0.5158792703716164,3.000000025725396,11.686755158658102
4.3,10.74175153712565,4.980795987386961,0.5554218567602083,3.0000000297813854,11.98675516163624
4.4,10.99005894301836,5.1490084856676726,0.6354213893590748,2.9999999382172944,12.28675515545797
4.5,11.231505437939068,5.327063495098864,0.6354213893590748,2.9999999382172944,12.586755149279698
4.6000000000000005,11.472951932859777,5.5051185045300555,0.6354213893590748,2.9999999382172944,12.886755143101427
4.7,11.714398427780486,5.683173513961247,0.6354213893590748,2.9999999382172944,13.186755136923155
4.800000000000001,11.955844922701194,5.861228523392438,0.6354213893590748,2.9999999382172944,13.486755130744884
4.9,12.197291417621903,6.03928353282363,0.6354213893590748,2.9999999382172944,13.786755124566612
5.0,12.438737912542612,6.217338542254821,0.6354213893590748,2.9999999382172944,14.086755118388341
5.1000000000000005,12.687045357059057,6.385550981865401,0.5554213883951076,3.0000000299402116,14.386755121382363
5.2,12.948001291168179,6.533382017316902,0.4754213874760485,3.0000000298442497,14.686755124366787
5.300000000000001,13.219936482398184,6.65988603316985,0.3954213980415474,3.0000000183680733,14.986755126203594
5.4,13.501111474139279,6.7642538358879785,0.315421398007165,3.0000000292207605,15.28675512912567
5.5,13.789727654677158,6.845817962756951,0.23542236658523358,2.9999997206642908,15.586755101192098
5.6000000000000005,14.08393889817811,6.90405669143033,0.15542236569710016,3.000000029968765,15.886755104188975
5.7,14.381863313212722,6.938597356105768,0.0754223670071874,3.000000029743541,16.18675510716333
5.800000000000001,14.681594495022123,6.949243057800154,-0.0044172321409191445,2.9999968796056278,16.48675479512389
5.9,14.981588871835472,6.947451766612932,-0.007524790481920512,3.00000002941138,16.78675479806503
6.0,15.281586361324589,6.946504661863539,0.0012107275845894359,2.999998738078268,17.086754671872857
6.1000000000000005,15.581586015253343,6.946867879897393,0.0012107275845894359,2.999998738078268,17.386754545680684
6.2,15.881585669182098,6.9472310979312475,0.0012107275845894359,2.999998738078268,17.686754419488512
6.300000000000001,16.17154294497729,6.951609783847073,0.02931226669463139,2.799998736157275,17.96675429310424
6.4,16.441433949171042,6.95927506578314,0.027452301837990856,2.5999987341575097,18.226754166519992
6.5,16.691313532608635,6.967012510611754,0.03455196682875444,2.3999987321576923,18.46675403973576
6.6000000000000005,16.940925718867533,6.980636173510634,0.07397285944012714,2.599998734106797,18.726753913146442
6.7,17.210198137734768,7.000442459310155,0.07288576744159332,2.7999987361052527,19.006753786756967
6.800000000000001,17.499347521215224,7.02262776510102,0.08018251087648788,2.9999987381029785,19.306753660567264
6.9,17.798329409868224,7.047318780179752,0.08461083047386181,3.0000000299989185,19.606753663567154
7.0,18.09720715489514,7.073241479230602,0.0884230503332591,3.000000029869224,19.906753666554078
7.1000000000000005,18.39600493536213,7.10007133599624,0.0906820038493091,2.99999974005021,20.2067536405591
7.2,18.69471719139533,7.127835726104659,0.09467931300860555,3.0000000299848733,20.506753643557587
7.300000000000001,18.993352513444204,7.156417698077702,0.0961566317043055,3.000000005536116,20.8067536441112
7.4,19.2919488757443,7.185403938476009,0.0973869226129812,3.000000029910415,21.10675364710224
7.5,19.590503958177933,7.2148120386534735,0.09898246310656113,2.999999726626903,21.40675361976493
7.6000000000000005,19.88902572963004,7.244556609082127,0.09964102390304588,2.9999999651615767,21.706753616281087
7.7,20.18757529431043,7.274020296653065,0.09710076563330358,3.0000000299369756,22.006753619274786
7.800000000000001,20.486162124359346,7.303104772195173,0.09710076563330358,3.0000000299369756,22.306753622268484
7.9,20.78474895440826,7.332189247737281,0.09710076563330358,3.0000000299369756,22.606753625262183
8.0,21.08102103500447,7.364711435174963,0.12161966968236512,2.961184044312236,22.902872029693405
8.1,21.374952142918467,7.400636541206033,0.12161966968236512,2.961184044312236,23.198990434124628
8.200000000000001,21.668883250832465,7.436561647237103,0.12161966968236512,2.961184044312236,23.49510883855585
8.3,21.668883250832465,7.436561647237103,0.12161966968236512,2.961184044312236,23.49510883855585
8.4,21.668883250832465,7.436561647237103,0.12161966968236512,2.961184044312236,23.49510883855585
8.5,21.668883250832465,7.436561647237103,0.12161966968236512,2.961184044312236,23.49510883855585
